# CLASS transfer function for vanilla LCDM with 3 massless neutrinos
# omega_b = 0.022383, omega_cdm = 0.12011, h = 0.6732, ln10^{10}A_s = 3.0448, n_s = 0.96605
# (cosmo parameters taken from first column in Table 1 of arxiv:1807.06209)
# 1:k (h/Mpc)   2:T(k)
1.00000e-04        9.99230e-01
1.00539e-04        9.99228e-01
1.01081e-04        9.99227e-01
1.01625e-04        9.99226e-01
1.02173e-04        9.99224e-01
1.02724e-04        9.99223e-01
1.03277e-04        9.99222e-01
1.03834e-04        9.99220e-01
1.04393e-04        9.99219e-01
1.04956e-04        9.99217e-01
1.05522e-04        9.99216e-01
1.06090e-04        9.99214e-01
1.06662e-04        9.99213e-01
1.07237e-04        9.99211e-01
1.07815e-04        9.99210e-01
1.08396e-04        9.99208e-01
1.08980e-04        9.99207e-01
1.09567e-04        9.99205e-01
1.10157e-04        9.99203e-01
1.10751e-04        9.99202e-01
1.11348e-04        9.99200e-01
1.11948e-04        9.99199e-01
1.12551e-04        9.99197e-01
1.13158e-04        9.99195e-01
1.13768e-04        9.99193e-01
1.14381e-04        9.99192e-01
1.14997e-04        9.99190e-01
1.15617e-04        9.99188e-01
1.16240e-04        9.99186e-01
1.16866e-04        9.99185e-01
1.17496e-04        9.99183e-01
1.18129e-04        9.99181e-01
1.18766e-04        9.99179e-01
1.19406e-04        9.99177e-01
1.20049e-04        9.99175e-01
1.20696e-04        9.99174e-01
1.21347e-04        9.99172e-01
1.22001e-04        9.99170e-01
1.22658e-04        9.99168e-01
1.23319e-04        9.99166e-01
1.23984e-04        9.99164e-01
1.24652e-04        9.99162e-01
1.25324e-04        9.99160e-01
1.25999e-04        9.99157e-01
1.26678e-04        9.99155e-01
1.27361e-04        9.99153e-01
1.28047e-04        9.99151e-01
1.28737e-04        9.99149e-01
1.29431e-04        9.99147e-01
1.30128e-04        9.99144e-01
1.30829e-04        9.99142e-01
1.31535e-04        9.99140e-01
1.32243e-04        9.99138e-01
1.32956e-04        9.99135e-01
1.33672e-04        9.99133e-01
1.34393e-04        9.99131e-01
1.35117e-04        9.99128e-01
1.35845e-04        9.99126e-01
1.36577e-04        9.99123e-01
1.37313e-04        9.99121e-01
1.38053e-04        9.99118e-01
1.38797e-04        9.99116e-01
1.39545e-04        9.99113e-01
1.40297e-04        9.99111e-01
1.41053e-04        9.99108e-01
1.41813e-04        9.99106e-01
1.42578e-04        9.99103e-01
1.43346e-04        9.99100e-01
1.44118e-04        9.99097e-01
1.44895e-04        9.99095e-01
1.45676e-04        9.99092e-01
1.46461e-04        9.99089e-01
1.47250e-04        9.99086e-01
1.48044e-04        9.99083e-01
1.48842e-04        9.99080e-01
1.49644e-04        9.99078e-01
1.50450e-04        9.99075e-01
1.51261e-04        9.99072e-01
1.52076e-04        9.99069e-01
1.52896e-04        9.99066e-01
1.53719e-04        9.99062e-01
1.54548e-04        9.99059e-01
1.55381e-04        9.99056e-01
1.56218e-04        9.99053e-01
1.57060e-04        9.99050e-01
1.57906e-04        9.99047e-01
1.58757e-04        9.99043e-01
1.59613e-04        9.99040e-01
1.60473e-04        9.99037e-01
1.61338e-04        9.99033e-01
1.62207e-04        9.99030e-01
1.63081e-04        9.99026e-01
1.63960e-04        9.99023e-01
1.64844e-04        9.99019e-01
1.65732e-04        9.99016e-01
1.66625e-04        9.99012e-01
1.67523e-04        9.99008e-01
1.68426e-04        9.99005e-01
1.69334e-04        9.99001e-01
1.70246e-04        9.98997e-01
1.71163e-04        9.98993e-01
1.72086e-04        9.98989e-01
1.73013e-04        9.98986e-01
1.73946e-04        9.98982e-01
1.74883e-04        9.98978e-01
1.75825e-04        9.98974e-01
1.76773e-04        9.98970e-01
1.77726e-04        9.98965e-01
1.78683e-04        9.98961e-01
1.79646e-04        9.98957e-01
1.80614e-04        9.98953e-01
1.81588e-04        9.98949e-01
1.82566e-04        9.98944e-01
1.83550e-04        9.98940e-01
1.84539e-04        9.98935e-01
1.85534e-04        9.98931e-01
1.86534e-04        9.98926e-01
1.87539e-04        9.98922e-01
1.88549e-04        9.98917e-01
1.89565e-04        9.98913e-01
1.90587e-04        9.98908e-01
1.91614e-04        9.98903e-01
1.92647e-04        9.98898e-01
1.93685e-04        9.98893e-01
1.94729e-04        9.98889e-01
1.95778e-04        9.98884e-01
1.96833e-04        9.98879e-01
1.97894e-04        9.98873e-01
1.98960e-04        9.98868e-01
2.00032e-04        9.98863e-01
2.01110e-04        9.98858e-01
2.02194e-04        9.98853e-01
2.03284e-04        9.98847e-01
2.04379e-04        9.98842e-01
2.05481e-04        9.98836e-01
2.06588e-04        9.98831e-01
2.07701e-04        9.98825e-01
2.08821e-04        9.98820e-01
2.09946e-04        9.98814e-01
2.11077e-04        9.98808e-01
2.12215e-04        9.98802e-01
2.13358e-04        9.98797e-01
2.14508e-04        9.98791e-01
2.15664e-04        9.98785e-01
2.16826e-04        9.98779e-01
2.17995e-04        9.98772e-01
2.19170e-04        9.98766e-01
2.20351e-04        9.98760e-01
2.21538e-04        9.98754e-01
2.22732e-04        9.98747e-01
2.23932e-04        9.98741e-01
2.25139e-04        9.98734e-01
2.26352e-04        9.98728e-01
2.27572e-04        9.98721e-01
2.28798e-04        9.98714e-01
2.30031e-04        9.98708e-01
2.31271e-04        9.98701e-01
2.32517e-04        9.98694e-01
2.33770e-04        9.98687e-01
2.35030e-04        9.98680e-01
2.36297e-04        9.98672e-01
2.37570e-04        9.98665e-01
2.38850e-04        9.98658e-01
2.40138e-04        9.98651e-01
2.41432e-04        9.98643e-01
2.42733e-04        9.98636e-01
2.44041e-04        9.98628e-01
2.45356e-04        9.98620e-01
2.46678e-04        9.98612e-01
2.48008e-04        9.98605e-01
2.49344e-04        9.98597e-01
2.50688e-04        9.98589e-01
2.52039e-04        9.98580e-01
2.53397e-04        9.98572e-01
2.54762e-04        9.98564e-01
2.56135e-04        9.98556e-01
2.57516e-04        9.98547e-01
2.58903e-04        9.98539e-01
2.60299e-04        9.98530e-01
2.61701e-04        9.98521e-01
2.63112e-04        9.98512e-01
2.64530e-04        9.98504e-01
2.65955e-04        9.98495e-01
2.67388e-04        9.98485e-01
2.68829e-04        9.98476e-01
2.70278e-04        9.98467e-01
2.71734e-04        9.98458e-01
2.73199e-04        9.98448e-01
2.74671e-04        9.98439e-01
2.76151e-04        9.98429e-01
2.77639e-04        9.98419e-01
2.79136e-04        9.98409e-01
2.80640e-04        9.98399e-01
2.82152e-04        9.98389e-01
2.83673e-04        9.98379e-01
2.85201e-04        9.98369e-01
2.86738e-04        9.98358e-01
2.88284e-04        9.98348e-01
2.89837e-04        9.98337e-01
2.91399e-04        9.98326e-01
2.92969e-04        9.98316e-01
2.94548e-04        9.98305e-01
2.96136e-04        9.98294e-01
2.97731e-04        9.98282e-01
2.99336e-04        9.98271e-01
3.00949e-04        9.98260e-01
3.02571e-04        9.98248e-01
3.04201e-04        9.98237e-01
3.05841e-04        9.98225e-01
3.07489e-04        9.98213e-01
3.09146e-04        9.98201e-01
3.10812e-04        9.98189e-01
3.12487e-04        9.98177e-01
3.14171e-04        9.98164e-01
3.15864e-04        9.98152e-01
3.17566e-04        9.98139e-01
3.19277e-04        9.98126e-01
3.20998e-04        9.98114e-01
3.22728e-04        9.98101e-01
3.24467e-04        9.98087e-01
3.26215e-04        9.98074e-01
3.27973e-04        9.98061e-01
3.29741e-04        9.98047e-01
3.31518e-04        9.98034e-01
3.33304e-04        9.98020e-01
3.35100e-04        9.98006e-01
3.36906e-04        9.97992e-01
3.38722e-04        9.97977e-01
3.40547e-04        9.97963e-01
3.42382e-04        9.97948e-01
3.44228e-04        9.97934e-01
3.46083e-04        9.97919e-01
3.47948e-04        9.97904e-01
3.49823e-04        9.97889e-01
3.51708e-04        9.97874e-01
3.53603e-04        9.97858e-01
3.55509e-04        9.97843e-01
3.57425e-04        9.97827e-01
3.59351e-04        9.97811e-01
3.61287e-04        9.97795e-01
3.63234e-04        9.97779e-01
3.65192e-04        9.97762e-01
3.67160e-04        9.97746e-01
3.69138e-04        9.97729e-01
3.71128e-04        9.97712e-01
3.73128e-04        9.97695e-01
3.75138e-04        9.97678e-01
3.77160e-04        9.97660e-01
3.79192e-04        9.97643e-01
3.81236e-04        9.97625e-01
3.83290e-04        9.97607e-01
3.85356e-04        9.97589e-01
3.87433e-04        9.97571e-01
3.89520e-04        9.97552e-01
3.91619e-04        9.97533e-01
3.93730e-04        9.97515e-01
3.95852e-04        9.97496e-01
3.97985e-04        9.97476e-01
4.00130e-04        9.97457e-01
4.02286e-04        9.97437e-01
4.04454e-04        9.97417e-01
4.06633e-04        9.97397e-01
4.08825e-04        9.97377e-01
4.11028e-04        9.97357e-01
4.13243e-04        9.97336e-01
4.15470e-04        9.97316e-01
4.17709e-04        9.97295e-01
4.19960e-04        9.97273e-01
4.22223e-04        9.97252e-01
4.24498e-04        9.97230e-01
4.26786e-04        9.97208e-01
4.29086e-04        9.97186e-01
4.31398e-04        9.97164e-01
4.33723e-04        9.97142e-01
4.36060e-04        9.97119e-01
4.38410e-04        9.97096e-01
4.40773e-04        9.97073e-01
4.43148e-04        9.97049e-01
4.45536e-04        9.97026e-01
4.47937e-04        9.97002e-01
4.50351e-04        9.96978e-01
4.52778e-04        9.96954e-01
4.55218e-04        9.96929e-01
4.57671e-04        9.96904e-01
4.60138e-04        9.96879e-01
4.62617e-04        9.96854e-01
4.65110e-04        9.96829e-01
4.67617e-04        9.96803e-01
4.70137e-04        9.96777e-01
4.72670e-04        9.96751e-01
4.75217e-04        9.96724e-01
4.77778e-04        9.96697e-01
4.80353e-04        9.96670e-01
4.82942e-04        9.96643e-01
4.85544e-04        9.96616e-01
4.88161e-04        9.96588e-01
4.90791e-04        9.96560e-01
4.93436e-04        9.96531e-01
4.96095e-04        9.96503e-01
4.98769e-04        9.96474e-01
5.01457e-04        9.96445e-01
5.04159e-04        9.96415e-01
5.06876e-04        9.96386e-01
5.09607e-04        9.96356e-01
5.12354e-04        9.96325e-01
5.15115e-04        9.96295e-01
5.17891e-04        9.96264e-01
5.20682e-04        9.96233e-01
5.23487e-04        9.96202e-01
5.26309e-04        9.96170e-01
5.29145e-04        9.96138e-01
5.31996e-04        9.96106e-01
5.34863e-04        9.96073e-01
5.37746e-04        9.96040e-01
5.40643e-04        9.96007e-01
5.43557e-04        9.95973e-01
5.46486e-04        9.95939e-01
5.49431e-04        9.95905e-01
5.52392e-04        9.95871e-01
5.55369e-04        9.95836e-01
5.58362e-04        9.95801e-01
5.61371e-04        9.95765e-01
5.64396e-04        9.95729e-01
5.67437e-04        9.95693e-01
5.70495e-04        9.95657e-01
5.73570e-04        9.95620e-01
5.76661e-04        9.95583e-01
5.79768e-04        9.95546e-01
5.82893e-04        9.95508e-01
5.86034e-04        9.95470e-01
5.89192e-04        9.95431e-01
5.92367e-04        9.95392e-01
5.95559e-04        9.95353e-01
5.98769e-04        9.95313e-01
6.01995e-04        9.95273e-01
6.05240e-04        9.95233e-01
6.08501e-04        9.95193e-01
6.11780e-04        9.95152e-01
6.15077e-04        9.95110e-01
6.18392e-04        9.95068e-01
6.21724e-04        9.95026e-01
6.25075e-04        9.94984e-01
6.28443e-04        9.94941e-01
6.31830e-04        9.94897e-01
6.35235e-04        9.94854e-01
6.38658e-04        9.94810e-01
6.42100e-04        9.94765e-01
6.45560e-04        9.94720e-01
6.49039e-04        9.94675e-01
6.52537e-04        9.94629e-01
6.56053e-04        9.94583e-01
6.59589e-04        9.94537e-01
6.63143e-04        9.94490e-01
6.66717e-04        9.94442e-01
6.70310e-04        9.94395e-01
6.73922e-04        9.94347e-01
6.77554e-04        9.94298e-01
6.81205e-04        9.94249e-01
6.84876e-04        9.94199e-01
6.88567e-04        9.94150e-01
6.92277e-04        9.94099e-01
6.96008e-04        9.94048e-01
6.99759e-04        9.93997e-01
7.03530e-04        9.93946e-01
7.07321e-04        9.93893e-01
7.11133e-04        9.93841e-01
7.14965e-04        9.93788e-01
7.18818e-04        9.93734e-01
7.22692e-04        9.93680e-01
7.26586e-04        9.93626e-01
7.30502e-04        9.93571e-01
7.34438e-04        9.93516e-01
7.38396e-04        9.93460e-01
7.42375e-04        9.93404e-01
7.46376e-04        9.93347e-01
7.50398e-04        9.93289e-01
7.54442e-04        9.93232e-01
7.58508e-04        9.93173e-01
7.62595e-04        9.93115e-01
7.66705e-04        9.93055e-01
7.70837e-04        9.92996e-01
7.74991e-04        9.92935e-01
7.79167e-04        9.92874e-01
7.83366e-04        9.92813e-01
7.87587e-04        9.92751e-01
7.91832e-04        9.92689e-01
7.96099e-04        9.92626e-01
8.00389e-04        9.92563e-01
8.04702e-04        9.92499e-01
8.09039e-04        9.92434e-01
8.13399e-04        9.92369e-01
8.17782e-04        9.92303e-01
8.22189e-04        9.92237e-01
8.26620e-04        9.92171e-01
8.31074e-04        9.92103e-01
8.35553e-04        9.92036e-01
8.40056e-04        9.91967e-01
8.44583e-04        9.91898e-01
8.49134e-04        9.91829e-01
8.53710e-04        9.91759e-01
8.58311e-04        9.91688e-01
8.62936e-04        9.91617e-01
8.67586e-04        9.91545e-01
8.72262e-04        9.91473e-01
8.76962e-04        9.91400e-01
8.81688e-04        9.91326e-01
8.86440e-04        9.91252e-01
8.91217e-04        9.91177e-01
8.96019e-04        9.91101e-01
9.00848e-04        9.91025e-01
9.05703e-04        9.90949e-01
9.10583e-04        9.90871e-01
9.15491e-04        9.90793e-01
9.20424e-04        9.90715e-01
9.25384e-04        9.90636e-01
9.30371e-04        9.90556e-01
9.35385e-04        9.90475e-01
9.40426e-04        9.90394e-01
9.45494e-04        9.90312e-01
9.50589e-04        9.90230e-01
9.55711e-04        9.90147e-01
9.60862e-04        9.90063e-01
9.66040e-04        9.89979e-01
9.71246e-04        9.89893e-01
9.76480e-04        9.89808e-01
9.81742e-04        9.89721e-01
9.87032e-04        9.89634e-01
9.92352e-04        9.89546e-01
9.97699e-04        9.89457e-01
1.00308e-03        9.89368e-01
1.00848e-03        9.89278e-01
1.01392e-03        9.89187e-01
1.01938e-03        9.89096e-01
1.02487e-03        9.89004e-01
1.03040e-03        9.88911e-01
1.03595e-03        9.88817e-01
1.04153e-03        9.88723e-01
1.04714e-03        9.88628e-01
1.05279e-03        9.88532e-01
1.05846e-03        9.88435e-01
1.06417e-03        9.88338e-01
1.06990e-03        9.88240e-01
1.07567e-03        9.88141e-01
1.08146e-03        9.88041e-01
1.08729e-03        9.87941e-01
1.09315e-03        9.87839e-01
1.09904e-03        9.87737e-01
1.10496e-03        9.87635e-01
1.11092e-03        9.87531e-01
1.11690e-03        9.87427e-01
1.12292e-03        9.87321e-01
1.12897e-03        9.87215e-01
1.13506e-03        9.87108e-01
1.14118e-03        9.87001e-01
1.14733e-03        9.86892e-01
1.15351e-03        9.86783e-01
1.15972e-03        9.86673e-01
1.16597e-03        9.86562e-01
1.17226e-03        9.86450e-01
1.17857e-03        9.86337e-01
1.18493e-03        9.86223e-01
1.19131e-03        9.86109e-01
1.19773e-03        9.85993e-01
1.20419e-03        9.85877e-01
1.21068e-03        9.85760e-01
1.21720e-03        9.85642e-01
1.22376e-03        9.85523e-01
1.23035e-03        9.85403e-01
1.23698e-03        9.85282e-01
1.24365e-03        9.85161e-01
1.25035e-03        9.85038e-01
1.25709e-03        9.84914e-01
1.26386e-03        9.84790e-01
1.27068e-03        9.84664e-01
1.27752e-03        9.84538e-01
1.28441e-03        9.84411e-01
1.29133e-03        9.84282e-01
1.29829e-03        9.84153e-01
1.30528e-03        9.84023e-01
1.31232e-03        9.83892e-01
1.31939e-03        9.83760e-01
1.32650e-03        9.83626e-01
1.33365e-03        9.83492e-01
1.34084e-03        9.83357e-01
1.34806e-03        9.83221e-01
1.35533e-03        9.83084e-01
1.36263e-03        9.82945e-01
1.36997e-03        9.82806e-01
1.37736e-03        9.82666e-01
1.38478e-03        9.82524e-01
1.39224e-03        9.82382e-01
1.39974e-03        9.82239e-01
1.40729e-03        9.82094e-01
1.41487e-03        9.81948e-01
1.42250e-03        9.81802e-01
1.43016e-03        9.81654e-01
1.43787e-03        9.81505e-01
1.44562e-03        9.81355e-01
1.45341e-03        9.81204e-01
1.46124e-03        9.81052e-01
1.46911e-03        9.80899e-01
1.47703e-03        9.80744e-01
1.48499e-03        9.80589e-01
1.49299e-03        9.80432e-01
1.50104e-03        9.80274e-01
1.50913e-03        9.80115e-01
1.51726e-03        9.79955e-01
1.52544e-03        9.79794e-01
1.53366e-03        9.79632e-01
1.54192e-03        9.79468e-01
1.55023e-03        9.79303e-01
1.55859e-03        9.79137e-01
1.56699e-03        9.78970e-01
1.57543e-03        9.78801e-01
1.58392e-03        9.78632e-01
1.59246e-03        9.78461e-01
1.60104e-03        9.78289e-01
1.60967e-03        9.78115e-01
1.61834e-03        9.77941e-01
1.62706e-03        9.77765e-01
1.63583e-03        9.77588e-01
1.64464e-03        9.77409e-01
1.65351e-03        9.77230e-01
1.66242e-03        9.77049e-01
1.67138e-03        9.76866e-01
1.68038e-03        9.76683e-01
1.68944e-03        9.76498e-01
1.69854e-03        9.76312e-01
1.70770e-03        9.76124e-01
1.71690e-03        9.75935e-01
1.72615e-03        9.75745e-01
1.73545e-03        9.75554e-01
1.74481e-03        9.75361e-01
1.75421e-03        9.75166e-01
1.76366e-03        9.74971e-01
1.77317e-03        9.74774e-01
1.78272e-03        9.74575e-01
1.79233e-03        9.74376e-01
1.80199e-03        9.74174e-01
1.81170e-03        9.73972e-01
1.82146e-03        9.73768e-01
1.83128e-03        9.73562e-01
1.84115e-03        9.73355e-01
1.85107e-03        9.73147e-01
1.86104e-03        9.72937e-01
1.87107e-03        9.72726e-01
1.88116e-03        9.72513e-01
1.89129e-03        9.72299e-01
1.90149e-03        9.72083e-01
1.91173e-03        9.71866e-01
1.92203e-03        9.71647e-01
1.93239e-03        9.71427e-01
1.94281e-03        9.71205e-01
1.95328e-03        9.70982e-01
1.96380e-03        9.70757e-01
1.97438e-03        9.70531e-01
1.98502e-03        9.70303e-01
1.99572e-03        9.70073e-01
2.00648e-03        9.69842e-01
2.01729e-03        9.69610e-01
2.02816e-03        9.69376e-01
2.03909e-03        9.69140e-01
2.05008e-03        9.68902e-01
2.06113e-03        9.68663e-01
2.07223e-03        9.68422e-01
2.08340e-03        9.68180e-01
2.09463e-03        9.67936e-01
2.10592e-03        9.67690e-01
2.11727e-03        9.67443e-01
2.12868e-03        9.67194e-01
2.14015e-03        9.66943e-01
2.15168e-03        9.66691e-01
2.16327e-03        9.66437e-01
2.17493e-03        9.66181e-01
2.18665e-03        9.65924e-01
2.19844e-03        9.65664e-01
2.21028e-03        9.65403e-01
2.22220e-03        9.65141e-01
2.23417e-03        9.64876e-01
2.24621e-03        9.64610e-01
2.25832e-03        9.64342e-01
2.27049e-03        9.64072e-01
2.28272e-03        9.63801e-01
2.29502e-03        9.63527e-01
2.30739e-03        9.63252e-01
2.31982e-03        9.62975e-01
2.33233e-03        9.62696e-01
2.34489e-03        9.62415e-01
2.35753e-03        9.62133e-01
2.37024e-03        9.61848e-01
2.38301e-03        9.61562e-01
2.39585e-03        9.61274e-01
2.40876e-03        9.60984e-01
2.42174e-03        9.60692e-01
2.43479e-03        9.60398e-01
2.44791e-03        9.60102e-01
2.46111e-03        9.59804e-01
2.47437e-03        9.59505e-01
2.48770e-03        9.59203e-01
2.50111e-03        9.58899e-01
2.51459e-03        9.58594e-01
2.52814e-03        9.58286e-01
2.54176e-03        9.57977e-01
2.55546e-03        9.57665e-01
2.56923e-03        9.57352e-01
2.58308e-03        9.57036e-01
2.59700e-03        9.56719e-01
2.61099e-03        9.56399e-01
2.62506e-03        9.56077e-01
2.63921e-03        9.55753e-01
2.65343e-03        9.55428e-01
2.66773e-03        9.55100e-01
2.68211e-03        9.54770e-01
2.69656e-03        9.54438e-01
2.71109e-03        9.54104e-01
2.72570e-03        9.53767e-01
2.74039e-03        9.53429e-01
2.75516e-03        9.53088e-01
2.77001e-03        9.52745e-01
2.78493e-03        9.52401e-01
2.79994e-03        9.52053e-01
2.81503e-03        9.51704e-01
2.83020e-03        9.51353e-01
2.84545e-03        9.50999e-01
2.86079e-03        9.50643e-01
2.87620e-03        9.50285e-01
2.89170e-03        9.49925e-01
2.90729e-03        9.49562e-01
2.92295e-03        9.49197e-01
2.93871e-03        9.48830e-01
2.95454e-03        9.48461e-01
2.97046e-03        9.48089e-01
2.98647e-03        9.47715e-01
3.00257e-03        9.47339e-01
3.01875e-03        9.46960e-01
3.03501e-03        9.46579e-01
